# Au fcc                                                         Feff 8.40   
# POT  Non-SCF, core-hole, AFOLP (folp(0)= 1.150)
# Abs   Z=79 Rmt= 1.550 Rnm= 1.593 L3 shell
# Pot 1 Z=79 Rmt= 1.528 Rnm= 1.567
# Gam_ch=5.284E+00 H-L exch
# Mu=-4.795E-01 kf=1.866E+00 Vint=-1.374E+01 Rs_int= 1.944
# PATH  Rmax= 7.000,  Keep_limit= 0.00, Heap_limit 0.00  Pwcrit= 2.50%
#  S02=1.000                                        Global_sig2= 0.00000
#  Curved wave amplitude ratio filter   4.000%
#     file         sig2 tot  cw amp ratio   deg  nlegs   reff  inp sig2
#           1       0.00000    100.00     12.00     2   2.8779
#           2       0.00000     24.44      6.00     2   4.0700
#           3       0.00000     11.58     48.00     3   4.3169
#           4       0.00000      5.13     48.00     3   4.9129
#           5       0.00000     56.57     24.00     2   4.9847
#           6       0.00000      9.16     48.00     3   5.3703
#           7       0.00000     23.54     96.00     3   5.3703
#           8       0.00000     18.44     12.00     2   5.7558
#           9       0.00000      7.76     12.00     3   5.7558
#          10       0.00000     74.71     24.00     3   5.7558
#          11       0.00000     12.92     12.00     4   5.7558
#          14       0.00000     79.13     12.00     4   5.7558
#          15       0.00000      6.48     48.00     4   5.7558
#          16       0.00000     26.02     24.00     2   6.4352
#          18       0.00000      6.88     48.00     3   6.6916
#          19       0.00000      8.19     48.00     3   6.6916
#          21       0.00000      6.72     96.00     4   6.8092
#          22       0.00000      4.09     96.00     4   6.8092
#    18/  22 paths used
#  -----------------------------------------------------------------------
#       k          chi          mag           phase @#
     0.0000   -2.941426E-02  1.219263E-01 -2.897943E+00
     0.0500   -2.932326E-02  1.214015E-01 -2.897641E+00
     0.1000   -2.922937E-02  1.208795E-01 -2.897366E+00
     0.1500   -2.893307E-02  1.193914E-01 -2.896818E+00
     0.2000   -2.861465E-02  1.179297E-01 -2.896505E+00
     0.2500   -2.806065E-02  1.157479E-01 -2.896724E+00
     0.3000   -2.746558E-02  1.136437E-01 -2.897494E+00
     0.3500   -2.665101E-02  1.112145E-01 -2.899602E+00
     0.4000   -2.581067E-02  1.089411E-01 -2.902395E+00
     0.4500   -2.490306E-02  1.068402E-01 -2.906342E+00
     0.5000   -2.405421E-02  1.049773E-01 -2.910401E+00
     0.5500   -2.349456E-02  1.037741E-01 -2.913211E+00
     0.6000   -2.315851E-02  1.028340E-01 -2.914442E+00
     0.6500   -2.367771E-02  1.028577E-01 -2.909311E+00
     0.7000   -2.462060E-02  1.030373E-01 -2.900310E+00
     0.7500   -2.717517E-02  1.041354E-01 -2.877576E+00
     0.8000   -3.027454E-02  1.051300E-01 -2.849484E+00
     0.8500   -3.522445E-02  1.067635E-01 -2.805363E+00
     0.9000   -4.057544E-02  1.079709E-01 -2.756333E+00
     0.9500   -4.783149E-02  1.092142E-01 -2.688264E+00
     1.0000   -5.493179E-02  1.097304E-01 -2.617293E+00
     1.0500   -6.317420E-02  1.097213E-01 -2.528048E+00
     1.1000   -7.032055E-02  1.087955E-01 -2.438795E+00
     1.1500   -7.721636E-02  1.069181E-01 -2.334614E+00
     1.2000   -8.203751E-02  1.041134E-01 -2.234099E+00
     1.2500   -8.530973E-02  1.002269E-01 -2.123390E+00
     1.3000   -8.611346E-02  9.564983E-02 -2.021136E+00
     1.3500   -8.491910E-02  9.023985E-02 -1.915908E+00
     1.4000   -8.197139E-02  8.470275E-02 -1.825438E+00
     1.4500   -7.799112E-02  7.911624E-02 -1.739645E+00
     1.5000   -7.391155E-02  7.430261E-02 -1.673438E+00
     1.5500   -7.049707E-02  7.056157E-02 -1.613559E+00
     1.6000   -6.847478E-02  6.847563E-02 -1.565790E+00
     1.6500   -6.802639E-02  6.817015E-02 -1.505840E+00
     1.7000   -6.881922E-02  6.944881E-02 -1.436042E+00
     1.7500   -6.984057E-02  7.192383E-02 -1.329526E+00
     1.8000   -6.989035E-02  7.489461E-02 -1.203169E+00
     1.8500   -6.691337E-02  7.773448E-02 -1.036828E+00
     1.9000   -6.051174E-02  8.008392E-02 -8.565759E-01
     1.9500   -4.869398E-02  8.142808E-02 -6.410033E-01
     2.0000   -3.342087E-02  8.184172E-02 -4.206565E-01
     2.0500   -1.173046E-02  7.982715E-02 -1.474824E-01
     2.1000    9.097236E-03  7.687856E-02  1.186105E-01
     2.1500    2.680958E-02  7.339516E-02  3.739305E-01
     2.2000    4.035063E-02  6.983558E-02  6.160241E-01
     2.2500    5.170106E-02  6.682416E-02  8.846418E-01
     2.3000    5.844134E-02  6.396732E-02  1.152082E+00
     2.3500    6.060565E-02  6.129770E-02  1.420388E+00
     2.4000    5.834278E-02  5.877539E-02  1.692200E+00
     2.4500    5.217968E-02  5.695666E-02  1.983276E+00
     2.5000    4.227301E-02  5.546615E-02  2.274979E+00
     2.5500    2.939507E-02  5.423130E-02  2.568740E+00
     2.6000    1.448892E-02  5.316928E-02  2.865597E+00
     2.6500   -2.609681E-03  5.469435E-02  3.189325E+00
     2.7000   -2.063350E-02  5.617031E-02  3.517738E+00
     2.7500   -3.742683E-02  5.752319E-02  3.850018E+00
     2.8000   -5.072241E-02  5.869002E-02  4.185235E+00
     2.8500   -5.988138E-02  6.104789E-02  4.516587E+00
     2.9000   -6.233111E-02  6.290957E-02  4.848104E+00
     2.9500   -5.738877E-02  6.422948E-02  5.178115E+00
     3.0000   -4.562219E-02  6.498963E-02  5.504995E+00
     3.0500   -2.948861E-02  6.563846E-02  5.817251E+00
     3.1000   -1.044256E-02  6.558865E-02  6.123292E+00
     3.1500    8.918668E-03  6.492977E-02  6.420980E+00
     3.2000    2.631163E-02  6.380179E-02  6.708268E+00
     3.2500    4.008511E-02  6.217345E-02  6.983856E+00
     3.3000    4.954004E-02  6.029100E-02  7.247541E+00
     3.3500    5.472451E-02  5.838338E-02  7.498073E+00
     3.4000    5.629390E-02  5.669181E-02  7.735431E+00
     3.4500    5.433103E-02  5.468023E-02  7.967058E+00
     3.5000    5.002310E-02  5.298305E-02  8.189821E+00
     3.5500    4.403512E-02  5.170607E-02  8.405666E+00
     3.6000    3.676847E-02  5.089923E-02  8.617543E+00
     3.6500    2.785691E-02  4.990526E-02  8.832568E+00
     3.7000    1.821544E-02  4.914589E-02  9.045080E+00
     3.7500    8.160378E-03  4.862701E-02  9.256164E+00
     3.8000   -2.031501E-03  4.833117E-02  9.466823E+00
     3.8500   -1.188475E-02  4.737332E-02  9.678361E+00
     3.9000   -2.072702E-02  4.664138E-02  9.885273E+00
     3.9500   -2.849971E-02  4.625604E-02  1.008860E+01
     4.0000   -3.528473E-02  4.631615E-02  1.029090E+01
     4.0500   -4.089373E-02  4.651549E-02  1.049884E+01
     4.1000   -4.515840E-02  4.707362E-02  1.070934E+01
     4.1500   -4.798270E-02  4.809880E-02  1.092608E+01
     4.2000   -4.892358E-02  4.954972E-02  1.115472E+01
     4.2500   -4.650760E-02  5.055691E-02  1.139853E+01
     4.3000   -4.075768E-02  5.150415E-02  1.165336E+01
     4.3500   -3.149840E-02  5.227105E-02  1.191962E+01
     4.4000   -1.900755E-02  5.270540E-02  1.219742E+01
     4.4500   -4.463502E-03  5.217098E-02  1.248071E+01
     4.5000    1.035641E-02  5.106113E-02  1.277061E+01
     4.5500    2.361676E-02  4.932407E-02  1.306567E+01
     4.6000    3.359984E-02  4.693883E-02  1.336417E+01
     4.6500    3.864358E-02  4.362998E-02  1.365440E+01
     4.7000    3.907680E-02  3.983539E-02  1.394170E+01
     4.7500    3.552025E-02  3.565034E-02  1.422262E+01
     4.8000    2.925681E-02  3.120217E-02  1.449215E+01
     4.8500    2.226127E-02  2.675487E-02  1.472518E+01
     4.9000    1.585274E-02  2.248492E-02  1.492549E+01
     4.9500    1.102368E-02  1.868637E-02  1.507699E+01
     5.0000    8.142497E-03  1.573650E-02  1.516412E+01
     5.0500    7.146390E-03  1.410114E-02  1.517650E+01
     5.1000    7.023698E-03  1.383528E-02  1.517549E+01
     5.1500    6.883168E-03  1.464069E-02  1.521851E+01
     5.2000    5.931477E-03  1.597612E-02  1.532759E+01
     5.2500    4.317495E-03  1.758853E-02  1.545996E+01
     5.3000    1.445713E-03  1.918619E-02  1.563254E+01
     5.3500   -2.584380E-03  2.059076E-02  1.583381E+01
     5.4000   -7.380203E-03  2.169596E-02  1.605506E+01
     5.4500   -1.225901E-02  2.340976E-02  1.625912E+01
     5.5000   -1.735456E-02  2.489369E-02  1.647937E+01
     5.5500   -2.201370E-02  2.608678E-02  1.671241E+01
     5.6000   -2.555037E-02  2.694129E-02  1.695603E+01
     5.6500   -2.860549E-02  2.866431E-02  1.721469E+01
     5.7000   -2.936957E-02  2.997826E-02  1.748062E+01
     5.7500   -2.741584E-02  3.079690E-02  1.775174E+01
     5.8000   -2.277400E-02  3.104622E-02  1.802602E+01
     5.8500   -1.565667E-02  3.136462E-02  1.832690E+01
     5.9000   -6.860421E-03  3.100620E-02  1.862645E+01
     5.9500    2.161486E-03  2.995011E-02  1.892179E+01
     6.0000    9.926828E-03  2.821403E-02  1.920909E+01
     6.0500    1.666052E-02  2.639907E-02  1.953253E+01
     6.1000    1.993133E-02  2.376420E-02  1.984447E+01
     6.1500    1.961610E-02  2.047012E-02  2.013048E+01
     6.2000    1.679904E-02  1.682289E-02  2.036709E+01
     6.2500    1.325857E-02  1.331774E-02  2.051465E+01
     6.3000    1.067859E-02  1.073411E-02  2.052210E+01
     6.3500    1.000668E-02  1.000733E-02  2.040888E+01
     6.4000    1.124661E-02  1.128676E-02  2.033597E+01
     6.4500    1.368771E-02  1.369381E-02  2.039053E+01
     6.5000    1.633789E-02  1.644963E-02  2.053697E+01
     6.5500    1.826637E-02  1.927820E-02  2.074578E+01
     6.6000    1.854433E-02  2.203384E-02  2.099086E+01
     6.6500    1.646576E-02  2.457812E-02  2.125703E+01
     6.7000    1.181497E-02  2.683032E-02  2.153515E+01
     6.7500    4.910575E-03  2.874314E-02  2.181946E+01
     6.8000   -3.472681E-03  3.029161E-02  2.210604E+01
     6.8500   -1.227761E-02  3.146856E-02  2.239195E+01
     6.9000   -2.038943E-02  3.228364E-02  2.267473E+01
     6.9500   -2.685919E-02  3.276478E-02  2.295214E+01
     7.0000   -3.107515E-02  3.296131E-02  2.322201E+01
     7.0500   -3.231745E-02  3.239150E-02  2.349431E+01
     7.1000   -3.121295E-02  3.177676E-02  2.375060E+01
     7.1500   -2.846698E-02  3.131747E-02  2.399191E+01
     7.2000   -2.462375E-02  3.116123E-02  2.422160E+01
     7.2500   -1.995213E-02  3.139319E-02  2.444401E+01
     7.3000   -1.450669E-02  3.206341E-02  2.466324E+01
     7.3500   -8.210105E-03  3.322543E-02  2.488305E+01
     7.4000   -8.743738E-04  3.494795E-02  2.510772E+01
     7.4500    7.763529E-03  3.728281E-02  2.534251E+01
     7.5000    1.785172E-02  4.020992E-02  2.559276E+01
     7.5500    2.904654E-02  4.317834E-02  2.587061E+01
     7.6000    3.973942E-02  4.623480E-02  2.616706E+01
     7.6500    4.793736E-02  4.916065E-02  2.647999E+01
     7.7000    5.147629E-02  5.175241E-02  2.680688E+01
     7.7500    4.866178E-02  5.382910E-02  2.714529E+01
     7.8000    3.890065E-02  5.523638E-02  2.749296E+01
     7.8500    2.310045E-02  5.584919E-02  2.784791E+01
     7.9000    3.664312E-03  5.557373E-02  2.820835E+01
     7.9500   -1.597261E-02  5.434890E-02  2.857263E+01
     8.0000   -3.216743E-02  5.214736E-02  2.893908E+01
     8.0500   -4.202161E-02  4.879612E-02  2.931189E+01
     8.1000   -4.395317E-02  4.453751E-02  2.968296E+01
     8.1500   -3.863864E-02  3.945545E-02  3.004896E+01
     8.2000   -2.854108E-02  3.367113E-02  3.040440E+01
     8.2500   -1.713912E-02  2.735278E-02  3.073875E+01
     8.3000   -7.843342E-03  2.075154E-02  3.102833E+01
     8.3500   -2.942932E-03  1.434544E-02  3.120931E+01
     8.4000   -2.923114E-03  9.491425E-03  3.110286E+01
     8.4500   -6.376530E-03  9.494488E-03  3.067956E+01
     8.5000   -1.053823E-02  1.422382E-02  3.058154E+01
     8.5500   -1.214451E-02  2.031825E-02  3.077528E+01
     8.6000   -8.794694E-03  2.644086E-02  3.107685E+01
     8.6500    2.574108E-04  3.214057E-02  3.142394E+01
     8.7000    1.371246E-02  3.719243E-02  3.179353E+01
     8.7500    2.854740E-02  4.145545E-02  3.217552E+01
     8.8000    4.090421E-02  4.483579E-02  3.256482E+01
     8.8500    4.725624E-02  4.727503E-02  3.295853E+01
     8.9000    4.547977E-02  4.874552E-02  3.335485E+01
     8.9500    3.549786E-02  4.924774E-02  3.375256E+01
     9.0000    1.930919E-02  4.880794E-02  3.415078E+01
     9.0500    1.423456E-04  4.751607E-02  3.455452E+01
     9.1000   -1.766908E-02  4.538613E-02  3.495740E+01
     9.1500   -3.052581E-02  4.249981E-02  3.535881E+01
     9.2000   -3.631449E-02  3.895297E-02  3.575814E+01
     9.2500   -3.483989E-02  3.485196E-02  3.615463E+01
     9.3000   -2.768878E-02  3.030987E-02  3.654725E+01
     9.3500   -1.761444E-02  2.544276E-02  3.693442E+01
     9.4000   -7.664612E-03  2.036644E-02  3.731327E+01
     9.4500   -3.280541E-04  1.519458E-02  3.767752E+01
     9.5000    3.061905E-03  1.004291E-02  3.800893E+01
     9.5500    2.476451E-03  5.020218E-03  3.821499E+01
     9.6000   -9.064068E-04  1.849008E-03  3.718678E+01
     9.6500   -5.109453E-03  5.594516E-03  3.654781E+01
     9.7000   -8.032879E-03  1.012405E-02  3.678266E+01
     9.7500   -8.046079E-03  1.447203E-02  3.710958E+01
     9.8000   -4.391427E-03  1.855138E-02  3.746013E+01
     9.8500    2.670037E-03  2.233641E-02  3.781894E+01
     9.9000    1.196347E-02  2.582029E-02  3.818087E+01
     9.9500    2.169167E-02  2.900539E-02  3.854393E+01
    10.0000    2.982497E-02  3.189819E-02  3.890739E+01
    10.0500    3.486828E-02  3.486859E-02  3.927415E+01
    10.1000    3.500048E-02  3.756853E-02  3.964179E+01
    10.1500    2.950810E-02  3.997890E-02  4.001047E+01
    10.2000    1.869260E-02  4.207400E-02  4.038034E+01
    10.2500    3.902770E-03  4.382192E-02  4.075153E+01
    10.3000   -1.263403E-02  4.518590E-02  4.112408E+01
    10.3500   -2.817988E-02  4.612650E-02  4.149793E+01
    10.4000   -4.000602E-02  4.660453E-02  4.187288E+01
    10.4500   -4.596716E-02  4.658425E-02  4.224855E+01
    10.5000   -4.499716E-02  4.603680E-02  4.262442E+01
    10.5500   -3.738927E-02  4.494350E-02  4.299974E+01
    10.6000   -2.476289E-02  4.329911E-02  4.337347E+01
    10.6500   -9.697355E-03  4.111487E-02  4.374419E+01
    10.7000    4.890070E-03  3.842161E-02  4.410992E+01
    10.7500    1.646006E-02  3.527325E-02  4.446779E+01
    10.8000    2.345805E-02  3.175173E-02  4.481358E+01
    10.8500    2.563111E-02  2.797518E-02  4.514081E+01
    10.9000    2.395750E-02  2.411318E-02  4.543940E+01
    10.9500    2.021282E-02  2.041505E-02  4.569397E+01
    11.0000    1.631550E-02  1.725379E-02  4.588440E+01
    11.0500    1.376460E-02  1.515100E-02  4.598422E+01
    11.1000    1.305688E-02  1.472320E-02  4.603346E+01
    11.1500    1.355608E-02  1.600176E-02  4.611327E+01
    11.2000    1.383522E-02  1.840473E-02  4.627322E+01
    11.2500    1.229321E-02  2.125184E-02  4.650706E+01
    11.3000    7.844042E-03  2.405344E-02  4.679171E+01
    11.3500    4.184439E-04  2.649782E-02  4.710810E+01
    11.4000   -8.914746E-03  2.838784E-02  4.744333E+01
    11.4500   -1.825941E-02  2.960168E-02  4.778861E+01
    11.5000   -2.552336E-02  3.007482E-02  4.813734E+01
    11.5500   -2.913398E-02  2.979420E-02  4.848377E+01
    11.6000   -2.856663E-02  2.879956E-02  4.882196E+01
    11.6500   -2.448278E-02  2.719112E-02  4.914480E+01
    11.7000   -1.842374E-02  2.514485E-02  4.944320E+01
    11.7500   -1.217944E-02  2.293708E-02  4.970571E+01
    11.8000   -7.082148E-03  2.097118E-02  4.992100E+01
    11.8500   -3.509783E-03  1.976281E-02  5.008694E+01
    11.9000   -8.055052E-04  1.978918E-02  5.022477E+01
    11.9500    2.343019E-03  2.121158E-02  5.037617E+01
    12.0000    7.208638E-03  2.377022E-02  5.057360E+01
    12.0500    1.413816E-02  2.701728E-02  5.081620E+01
    12.1000    2.267844E-02  3.048960E-02  5.110423E+01
    12.1500    3.098292E-02  3.379011E-02  5.142578E+01
    12.2000    3.653399E-02  3.661222E-02  5.177089E+01
    12.2500    3.703670E-02  3.872067E-02  5.213228E+01
    12.3000    3.134273E-02  3.993707E-02  5.250470E+01
    12.3500    2.004159E-02  4.013203E-02  5.288418E+01
    12.4000    5.459217E-03  3.922175E-02  5.326743E+01
    12.4500   -8.984696E-03  3.716707E-02  5.365123E+01
    12.5000   -1.986669E-02  3.397438E-02  5.403165E+01
    12.5500   -2.492026E-02  2.969927E-02  5.440268E+01
    12.6000   -2.384112E-02  2.445839E-02  5.475273E+01
    12.6500   -1.841919E-02  1.847251E-02  5.505387E+01
    12.7000   -1.191295E-02  1.226711E-02  5.521875E+01
    12.7500   -7.857726E-03  7.859862E-03  5.495456E+01
    12.8000   -8.717200E-03  1.015498E-02  5.443925E+01
    12.8500   -1.486390E-02  1.706281E-02  5.446457E+01
    12.9000   -2.427641E-02  2.507241E-02  5.472522E+01
    12.9500   -3.309857E-02  3.322010E-02  5.506343E+01
    13.0000   -3.690296E-02  4.110692E-02  5.543408E+01
    13.0500   -3.228162E-02  4.833530E-02  5.581733E+01
    13.1000   -1.823780E-02  5.480578E-02  5.620943E+01
    13.1500    3.488035E-03  6.034810E-02  5.660650E+01
    13.2000    2.863902E-02  6.482773E-02  5.700624E+01
    13.2500    5.157545E-02  6.814639E-02  5.740712E+01
    13.3000    6.686384E-02  7.024318E-02  5.780802E+01
    13.3500    7.081676E-02  7.109519E-02  5.820800E+01
    13.4000    6.250380E-02  7.071721E-02  5.860622E+01
    13.4500    4.393823E-02  6.916031E-02  5.900185E+01
    13.5000    1.941747E-02  6.650924E-02  5.939399E+01
    13.5500   -5.736640E-03  6.287883E-02  5.978162E+01
    13.6000   -2.662067E-02  5.840937E-02  6.016349E+01
    13.6500   -3.993486E-02  5.326129E-02  6.053801E+01
    13.7000   -4.459124E-02  4.760956E-02  6.090307E+01
    13.7500   -4.163764E-02  4.163824E-02  6.125568E+01
    13.8000   -3.361474E-02  3.553632E-02  6.159141E+01
    13.8500   -2.362155E-02  2.949714E-02  6.190321E+01
    13.9000   -1.441133E-02  2.372623E-02  6.217907E+01
    13.9500   -7.773571E-03  1.847001E-02  6.239744E+01
    14.0000   -4.317844E-03  1.409180E-02  6.252044E+01
    14.0500   -3.572219E-03  1.125077E-02  6.250875E+01
    14.1000   -4.419603E-03  1.049463E-02  6.239716E+01
    14.1500   -5.628190E-03  1.175915E-02  6.233277E+01
    14.2000   -6.082130E-03  1.424377E-02  6.239068E+01
    14.2500   -4.926939E-03  1.729698E-02  6.254301E+01
    14.3000   -1.620067E-03  2.062407E-02  6.275322E+01
    14.3500    4.032844E-03  2.411165E-02  6.299990E+01
    14.4000    1.180353E-02  2.770247E-02  6.327201E+01
    14.4500    2.094155E-02  3.133903E-02  6.356367E+01
    14.5000    3.012572E-02  3.494259E-02  6.387135E+01
    14.5500    3.756462E-02  3.840969E-02  6.419249E+01
    14.6000    4.130603E-02  4.161710E-02  6.452499E+01
    14.6500    3.972755E-02  4.443050E-02  6.486692E+01
    14.7000    3.208123E-02  4.671426E-02  6.521643E+01
    14.7500    1.890024E-02  4.834089E-02  6.557175E+01
    14.8000    2.083948E-03  4.919960E-02  6.593108E+01
    14.8500   -1.543401E-02  4.920392E-02  6.629251E+01
    14.9000   -3.038708E-02  4.829835E-02  6.665391E+01
    14.9500   -4.005370E-02  4.646452E-02  6.701270E+01
    15.0000   -4.303085E-02  4.372765E-02  6.736548E+01
    15.0500   -3.965583E-02  4.017184E-02  6.770470E+01
    15.1000   -3.188880E-02  3.598749E-02  6.802616E+01
    15.1500   -2.244790E-02  3.140576E-02  6.831874E+01
    15.2000   -1.400726E-02  2.679358E-02  6.856492E+01
    15.2500   -8.319131E-03  2.273835E-02  6.874048E+01
    15.3000   -5.677366E-03  2.011200E-02  6.882886E+01
    15.3500   -4.916027E-03  1.980011E-02  6.886413E+01
    15.4000   -3.947345E-03  2.192955E-02  6.893405E+01
    15.4500   -6.475124E-04  2.571768E-02  6.908986E+01
    15.5000    6.230818E-03  3.023048E-02  6.932264E+01
    15.5500    1.645479E-02  3.479733E-02  6.960759E+01
    15.6000    2.824395E-02  3.898731E-02  6.992526E+01
    15.6500    3.877472E-02  4.251919E-02  7.026301E+01
    15.7000    4.508562E-02  4.520648E-02  7.061270E+01
    15.7500    4.506621E-02  4.693125E-02  7.096870E+01
    15.8000    3.818060E-02  4.763274E-02  7.132673E+01
    15.8500    2.567035E-02  4.730335E-02  7.168301E+01
    15.9000    1.016715E-02  4.598901E-02  7.203371E+01
    15.9500   -5.144584E-03  4.379300E-02  7.237438E+01
    16.0000   -1.751635E-02  4.088430E-02  7.269939E+01
    16.0500   -2.525691E-02  3.731436E-02  7.300013E+01
    16.1000   -2.852083E-02  3.369102E-02  7.326608E+01
    16.1500   -2.879544E-02  3.053852E-02  7.348793E+01
